x,phi,theta
19,270,30
18.78,255.53,29
18.36,241.5,28
17.76,227.92,27
17.03,214.8,26
16.19,202.14,25
15.29,189.94,24
14.37,178.21,23
13.46,166.94,22
12.61,156.14,21
11.83,145.82,20
11.15,135.97,19
10.58,126.61,18
10.13,117.72,17
9.99,109.31,16.2
9.91,101.39,15.4
9.85,93.95,14.6
9.8,91.06,13.8
